rhoSm149
   No    Ex(MeV)    Rho(1/MeV)    dRho(1/MeV)
   2      0.207      0.699E+01      0.815E+00
   3      0.323      0.599E+01      0.826E+00
   4      0.438      0.742E+01      0.864E+00
   5      0.554      0.110E+02      0.120E+01
   6      0.669      0.194E+02      0.182E+01
   7      0.784      0.288E+02      0.231E+01
   8      0.900      0.362E+02      0.276E+01
   9      1.015      0.368E+02      0.306E+01
  10      1.131      0.403E+02      0.346E+01
  11      1.246      0.645E+02      0.474E+01
  12      1.361      0.920E+02      0.629E+01
  13      1.477      0.119E+03      0.695E+01
  14      1.592      0.140E+03      0.847E+01
  15      1.708      0.172E+03      0.106E+02
  16      1.823      0.194E+03      0.125E+02
  17      1.938      0.217E+03      0.119E+02
  18      2.054      0.317E+03      0.178E+02
  19      2.169      0.418E+03      0.211E+02
  20      2.285      0.560E+03      0.284E+02
  21      2.400      0.726E+03      0.332E+02
  22      2.515      0.951E+03      0.437E+02
  23      2.631      0.128E+04      0.593E+02
  24      2.746      0.162E+04      0.743E+02
  25      2.862      0.208E+04      0.953E+02
  26      2.977      0.260E+04      0.123E+03
  27      3.092      0.342E+04      0.168E+03
  28      3.208      0.432E+04      0.217E+03
  29      3.323      0.570E+04      0.292E+03
  30      3.439      0.738E+04      0.394E+03
  31      3.554      0.940E+04      0.535E+03
  32      3.669      0.117E+05      0.671E+03
  33      3.785      0.140E+05      0.100E+04
  34      3.900      0.177E+05      0.145E+04
  35      4.016      0.244E+05      0.186E+04
  36      4.131      0.304E+05      0.276E+04
  37      4.246      0.391E+05      0.380E+04
  38      4.362      0.482E+05      0.561E+04
  39      4.477      0.586E+05      0.910E+04
  40      4.593      0.680E+05      0.119E+05
  41      4.708      0.955E+05      0.209E+05
  42      4.823      0.132E+06      0.320E+05
  43      4.939      0.191E+06      0.554E+05